5,3,3,0,20,64,65,64,64,64,65,65,65,65,65,65,65,65,65,65,65,65,65,65,65
5,3,3,0,20,64,64,62,61,60,60,60,60,60,60,62,64,65,66,66,67,67,68,68,68
5,3,3,0,20,67,67,67,68,67,67,69,71,73,75,65,56,45,34,28,23,30,37,53,69
5,3,3,0,20,82,79,74,69,68,69,68,68,68,68,68,69,68,68,67,67,66,66,65,65
5,3,3,0,20,65,65,64,64,64,64,63,63,63,63,62,61,60,59,58,57,56,57,58,59
5,3,3,0,20,59,60,61,63,65,67,67,68,68,69,68,68,67,67,66,66,66,66,66,67
5,3,3,0,20,66,65,65,65,65,65,65,65,65,66,65,64,65,66,66,66,65,64,64,65
5,3,3,0,20,65,65,65,65,65,65,65,65,65,65,65,65,64,64,64,65,65,65,65,65
5,3,3,0,20,65,65,65,65,64,64,64,64,64,65,65,65,64,64,64,65,65,65,65,66
5,3,3,0,20,65,65,65,65,65,66,65,65,64,63,61,59,59,59,59,60,60,61,62,64
5,3,3,0,20,65,67,67,67,68,69,69,69,68,67,68,67,67,68,71,75,76,70,60,50
5,3,3,0,20,36,23,27,32,47,62,71,80,82,79,69,69,69,69,68,68,67,69,69,69
5,3,3,0,20,68,67,66,66,65,65,65,66,65,65,64,64,64,64,63,63,62,62,61,61
5,3,3,0,20,60,59,58,58,57,57,57,58,59,60,62,65,66,68,68,69,68,68,67,67
5,3,3,0,20,67,67,67,67,67,67,66,66,66,66,65,65,65,66,65,65,65,65,65,65
5,3,3,0,20,65,65,64,64,64,65,65,65,65,65,64,65,65,65,65,65,65,65,65,65
5,3,3,0,20,64,64,65,66,65,65,64,64,64,65,64,64,64,65,64,64,64,64,64,65
5,3,3,0,20,64,65,65,66,66,66,65,64,64,65,65,66,65,65,65,65,64,63,61,60
5,3,3,0,20,60,60,60,60,61,62,63,65,65,66,67,68,68,69,68,68,67,67,67,68
5,3,3,0,20,67,68,71,74,76,75,66,57,46,35,23,27,37,48,62,77,79,82,76,71
5,3,3,0,20,68,69,69,69,69,69,69,69,68,68,66,65,65,65,65,65,65,65,64,64
5,3,3,0,20,64,64,63,63,62,62,61,61,60,60,57,57,58,59,59,59,60,61,62,64
5,3,3,0,20,66,68,68,69,68,68,68,68,68,68,67,66,66,66,66,67,66,66,66,66
5,3,3,0,20,65,65,65,65,65,65,65,65,65,65,65,65,65,65,66,65,64,64,64,65
5,3,3,0,20,64,64,64,65,65,66,65,65,64,65,65,65,65,65,65,65,65,65,65,65
5,3,3,0,20,65,65,65,65,65,65,65,65,65,65,65,65,65,65,65,65,65,66,65,64
5,3,3,0,20,64,65,64,64,62,61,60,60,60,60,60,60,61,62,63,64,65,66,67,68
5,3,3,0,20,68,69,68,67,67,67,67,68,67,67,70,73,76,75,66,57,46,35,29,23
5,3,3,0,20,45,67,74,82,78,75,72,69,69,69,68,68,68,69,69,69,68,68,67,67
5,3,3,0,20,65,65,65,65,66,65,64,64,64,64,63,63,62,62,61,61,60,59,58,57
5,3,3,0,20,57,58,58,59,60,61,62,64,65,67,67,68,68,69,68,68,67,67,66,66
5,3,3,0,20,66,67,66,66,66,66,66,66,65,65,65,65,65,65,65,65,65,65,65,65
5,3,3,0,20,65,65,65,65,65,65,65,65,65,65,65,65,64,65,65,65,64,64,64,64
5,3,3,0,20,64,65,64,64,64,65,65,65,64,64,64,65,64,64,64,64,64,65,65,65
5,3,3,0,20,65,66,65,65,64,65,65,65,65,65,64,64,62,61,60,60,60,60,60,60
5,3,3,0,20,62,64,65,66,66,67,67,68,68,69,68,68,67,67,67,67,67,67,69,71
5,3,3,0,20,76,67,56,45,34,24,22,26,36,47,64,81,78,75,72,69,69,69,69,69
5,3,3,0,20,69,70,69,69,68,67,67,67,66,65,65,66,65,65,64,64,64,64,64,64
5,3,3,0,20,63,63,62,62,61,60,59,58,57,57,58,60,61,62,64,66,66,67,68,69
5,3,3,0,20,69,69,68,68,68,68,67,67,66,66,65,65,65,66,66,66,65,65,65,65
5,3,3,0,20,66,65,64,64,65,66,66,66,65,65,65,65,64,64,64,64,64,65,65,65
5,3,3,0,20,64,64,65,64,64,65,64,64,64,65,65,65,65,65,64,64,64,64,64,64
5,3,3,0,20,64,64,64,65,65,65,65,65,65,65,65,65,64,64,64,65,65,66,65,65
5,3,3,0,20,63,61,60,59,59,59,59,60,61,62,63,65,66,67,67,68,68,69,68,68
5,3,3,0,20,67,67,67,67,66,67,70,74,75,76,76,73,71,69,67,65,63,60,58,55
5,3,3,0,20,67,66,65,65,65,65,65,65,65,65,65,65,65,65,65,65,65,65,65,65
5,3,3,0,20,66,68,68,68,68,68,68,68,67,67,65,65,64,64,64,64,64,65,65,65
5,3,3,0,20,64,65,65,65,65,65,65,65,65,66,63,60,60,60,60,60,60,61,62,63
5,3,3,0,20,65,67,67,68,68,69,68,68,67,68,68,68,67,67,68,70,73,76,71,67
5,3,3,0,20,45,23,26,29,45,61,70,80,82,79,74,69,68,68,68,68,68,69,69,69
5,3,3,0,20,68,68,67,66,65,64,64,65,65,65,65,65,64,64,63,63,63,63,62,62
5,3,3,0,20,60,59,58,58,57,57,57,58,58,59,61,64,65,67,67,68,68,69,69,69
5,3,3,0,20,68,68,67,67,66,66,66,67,66,66,65,66,66,66,65,65,64,65,65,65
5,3,3,0,20,65,65,65,66,65,65,64,64,64,65,64,65,65,65,65,65,65,65,65,65
5,3,3,0,20,65,65,65,65,65,65,65,65,64,64,64,64,64,64,64,64,64,65,65,65
5,3,3,0,20,65,65,64,65,65,65,65,65,65,65,65,66,65,65,64,64,63,63,62,61
5,3,3,0,20,60,60,60,60,60,61,62,63,64,66,66,67,67,68,69,68,67,67,67,67
5,3,3,0,20,67,67,69,71,73,76,69,63,52,41,24,35,51,67,74,81,82,76,72,69
5,3,3,0,20,68,69,68,68,68,69,69,69,68,68,66,65,65,65,65,66,65,65,65,65
5,3,3,0,20,64,63,63,63,63,63,62,62,61,60,58,57,57,57,58,59,59,59,60,62
5,3,3,0,20,65,69,68,68,68,68,68,68,67,67,67,67,66,66,66,66,66,66,66,66
5,3,3,0,20,65,65,66,65,64,64,64,65,65,66,65,65,65,65,66,65,64,64,64,65
5,3,3,0,20,64,64,64,64,64,64,64,64,64,64,64,65,65,65,65,65,65,65,65,65
5,3,3,0,20,64,64,64,64,64,65,64,64,64,65,65,65,65,65,65,65,65,65,65,65
5,3,3,0,20,65,65,64,63,62,61,60,60,59,60,60,61,62,63,64,65,66,67,67,68
5,3,3,0,20,68,69,68,67,67,67,67,68,67,67,71,76,70,64,52,41,32,23,26,30
5,3,3,0,20,55,80,81,75,72,69,68,69,69,69,68,69,69,69,68,68,67,67,66,66
5,3,3,0,20,65,65,65,65,64,64,64,64,63,63,63,63,62,62,61,60,59,59,58,57
5,3,3,0,20,58,59,59,60,61,62,64,67,67,68,68,69,68,68,67,67,67,68,67,67
5,3,3,0,20,67,67,66,65,65,65,65,66,65,65,65,66,65,65,65,66,65,65,64,64
5,3,3,0,20,64,65,65,65,64,64,64,64,64,65,64,64,64,65,65,65,65,65,65,65
5,3,3,0,20,65,65,65,65,65,65,64,64,64,64,64,65,65,65,64,64,64,65,65,66
5,3,3,0,20,65,65,65,66,65,65,64,64,64,65,63,62,61,61,60,60,59,59,59,60
5,3,3,0,20,62,64,65,66,66,67,67,68,68,69,67,67,67,67,67,68,70,73,74,76
5,3,3,0,20,58,41,32,24,23,30,44,59,69,79,82,73,71,69,69,69,68,67,67,68
5,3,3,0,20,68,69,68,67,67,67,66,65,64,64,65,66,65,65,64,64,64,64,63,63
5,3,3,0,20,62,62,60,59,58,57,57,57,57,58,60,62,64,66,67,68,68,69,68,68
5,3,3,0,20,67,67,67,67,67,67,67,67,67,67,65,65,65,65,65,65,65,65,65,65
5,3,3,0,20,65,65,65,65,65,65,65,65,65,65,65,65,65,65,65,65,64,64,64,64
5,3,3,0,20,64,65,64,64,64,65,64,64,64,65,64,64,64,64,65,64,64,64,64,64
5,3,3,0,20,64,65,65,65,65,65,65,65,65,66,65,66,65,65,64,64,64,64,63,62
5,3,3,0,20,60,60,60,60,60,60,60,61,62,64,65,67,67,68,68,69,68,67,67,67
5,3,3,0,20,68,67,68,69,72,75,76,71,62,53,23,26,36,46,61,76,79,82,76,71
5,3,3,0,20,68,69,68,68,68,69,69,69,68,68,67,66,65,65,64,65,65,65,65,65
5,3,3,0,20,64,64,63,63,62,62,62,62,61,61,59,57,57,58,58,58,59,60,62,64
5,3,3,0,20,65,67,68,69,68,68,68,68,67,67,67,67,66,66,66,66,65,65,65,65
5,3,3,0,20,65,66,66,66,65,65,65,65,66,65,65,65,65,65,64,64,64,65,65,65
5,3,3,0,20,65,65,65,65,65,65,65,65,65,65,65,65,65,65,64,64,64,64,64,65
5,3,3,0,20,64,64,64,64,64,64,65,64,64,65,65,65,65,65,65,65,65,65,65,65
5,3,3,0,20,65,65,64,64,63,62,61,60,60,60,60,60,60,61,62,64,65,66,66,67
5,3,3,0,20,69,68,67,67,67,67,68,67,67,68,71,74,76,71,62,53,42,32,24,25
5,3,3,0,20,50,75,78,81,76,72,70,68,68,69,68,69,69,70,69,69,68,67,66,66
5,3,3,0,20,65,65,65,66,65,65,64,64,64,64,63,63,62,62,61,61,60,59,58,58
5,3,3,0,20,58,58,58,58,59,60,62,64,66,68,68,69,68,68,67,67,68,67,67,67
5,3,3,0,20,67,67,66,65,65,65,65,65,65,65,65,65,65,66,65,65,64,65,65,65
5,3,3,0,20,65,65,65,65,65,65,65,65,65,65,65,65,64,65,65,65,65,65,65,65
5,3,3,0,20,64,65,64,64,64,64,64,65,64,64,65,64,64,65,65,65,65,65,65,65
5,3,3,0,20,65,65,65,65,65,65,65,65,65,66,63,61,60,60,59,60,60,60,60,61
5,3,3,0,20,62,64,65,66,66,67,67,68,68,69,67,67,67,67,67,67,70,73,74,76
5,3,3,0,20,59,43,33,23,26,29,44,59,68,78,81,73,71,69,69,69,69,69,68,68
5,3,3,0,20,68,69,68,67,66,66,65,65,65,65,66,65,64,64,64,64,64,64,63,62
5,3,3,0,20,61,60,59,58,57,57,57,58,58,59,59,60,62,64,65,67,67,68,68,68
5,3,3,0,20,67,67,67,67,67,67,67,67,67,67,65,65,65,65,65,65,65,65,65,66
5,3,3,0,20,65,65,65,65,65,66,65,65,65,66,65,65,64,64,64,65,65,65,65,65
5,3,3,0,20,64,64,65,64,64,64,64,64,64,65,65,65,64,64,64,64,64,64,64,64
5,3,3,0,20,64,65,65,65,65,65,65,65,65,65,65,65,65,65,65,65,64,64,63,62
5,3,3,0,20,60,60,60,60,61,63,64,65,65,66,67,68,68,69,68,68,67,67,67,68
5,3,3,0,20,67,68,71,74,76,72,63,54,43,32,23,29,43,58,68,78,81,80,75,70
5,3,3,0,20,68,69,68,68,68,69,69,69,68,68,67,66,65,65,65,65,65,66,65,65
5,3,3,0,20,65,65,64,64,63,62,62,62,62,62,57,58,58,58,58,59,60,62,63,65
5,3,3,0,20,66,67,67,68,68,69,69,69,68,68,67,67,67,67,66,66,66,66,65,65
5,3,3,0,20,65,65,65,66,65,65,65,65,65,65,65,65,65,65,65,66,65,65,64,64
5,3,3,0,20,64,65,65,65,64,64,64,65,65,65,64,65,65,65,65,65,64,65,65,65
5,3,3,0,20,65,65,65,65,65,65,65,65,65,65,65,65,64,64,64,65,65,65,65,65
5,3,3,0,20,65,66,65,64,62,60,60,60,60,60,59,60,61,63,64,65,65,66,67,68
5,3,3,0,20,69,68,68,68,68,68,67,67,67,67,76,71,62,54,43,33,28,23,30,38
5,3,3,0,20,58,78,81,80,75,70,69,68,68,69,68,69,69,69,68,68,67,67,66,65
5,3,3,0,20,65,65,65,65,64,64,64,65,64,64,63,62,62,62,61,61,60,59,58,57
5,3,3,0,20,58,59,59,59,60,61,62,64,66,68,68,69,68,68,68,68,67,67,67,67
5,3,3,0,20,66,66,66,66,66,66,65,65,65,65,65,65,65,65,65,65,65,65,65,65
5,3,3,0,20,64,64,64,64,64,65,65,65,65,65,65,65,64,64,64,65,65,65,64,64
5,3,3,0,20,65,66,65,65,64,64,64,64,65,64,64,64,64,64,64,65,64,64,64,65
5,3,3,0,20,65,65,65,65,65,66,65,65,66,65,63,61,60,60,59,59,59,60,61,62
5,3,3,0,20,63,64,65,66,67,68,68,69,69,69,68,67,67,67,67,67,69,71,73,76
5,3,3,0,20,65,54,43,33,28,24,31,38,53,69,82,75,72,69,68,69,68,68,68,68
5,3,3,0,20,68,69,68,68,67,67,66,66,65,65,64,65,65,65,64,64,64,64,63,63
5,3,3,0,20,62,61,59,58,57,56,56,57,57,58,59,60,62,64,66,68,68,68,68,69
5,3,3,0,20,68,68,67,68,67,67,66,66,66,66,67,66,65,65,65,66,65,65,64,65
5,3,3,0,20,65,65,65,65,65,65,65,65,65,65,65,65,65,65,65,65,65,65,65,65
5,3,3,0,20,65,65,64,64,64,64,64,65,64,65,65,65,64,64,64,64,64,65,65,65
5,3,3,0,20,65,65,65,65,64,64,64,65,65,66,65,65,65,65,65,65,64,64,63,62
5,3,3,0,20,61,60,60,60,60,60,60,61,62,63,65,68,68,68,68,69,69,69,68,67
5,3,3,0,20,67,67,69,71,73,75,70,65,54,44,33,23,30,38,53,68,74,81,82,75
5,3,3,0,20,68,69,69,69,68,68,69,70,69,69,67,66,66,66,65,65,65,65,65,65
5,3,3,0,20,64,64,64,64,63,63,62,62,61,61,59,57,57,57,58,59,59,60,61,62
5,3,3,0,20,65,68,68,68,68,68,68,68,67,67,67,67,67,67,67,67,66,66,66,66
5,3,3,0,20,65,65,66,65,65,65,64,64,65,66,65,65,64,64,64,65,65,65,65,65
5,3,3,0,20,65,65,64,64,64,64,64,65,65,65,65,65,65,65,64,64,64,65,65,65
5,3,3,0,20,64,65,65,65,64,64,64,65,65,65,64,65,65,66,65,65,65,66,65,65
5,3,3,0,20,64,65,65,65,64,63,62,61,60,60,59,60,61,62,62,63,64,65,66,67
5,3,3,0,20,68,69,69,69,68,67,67,67,67,67,71,75,76,70,60,50,38,26,23,25
5,3,3,0,20,44,63,71,80,81,77,73,70,69,69,68,68,68,69,69,69,68,67,66,66
5,3,3,0,20,65,65,65,65,65,65,65,65,64,64,63,62,61,61,60,60,59,59,58,57
5,3,3,0,20,57,58,58,58,59,60,61,63,64,66,67,69,68,68,67,68,68,68,67,67
5,3,3,0,20,66,65,65,65,65,66,65,65,65,65,65,65,65,65,65,65,65,65,65,65
5,3,3,0,20,65,65,64,65,65,65,66,65,65,65,65,65,64,64,64,65,65,65,65,65
5,3,3,0,20,65,65,64,64,64,64,64,64,64,65,64,64,64,64,64,65,65,65,65,65
5,3,3,0,20,65,65,65,65,65,65,65,65,65,65,64,63,62,61,60,60,59,59,59,60
5,3,3,0,20,61,63,64,65,66,68,68,68,68,68,67,67,67,67,67,68,67,68,71,74
5,3,3,0,20,62,51,38,26,23,25,34,43,58,73,81,74,71,69,68,69,69,69,69,69
5,3,3,0,20,69,69,68,67,66,66,65,65,65,65,65,65,65,65,64,64,64,64,63,63
5,3,3,0,20,62,62,60,59,58,58,58,58,58,58,59,60,60,61,63,66,67,69,69,69
5,3,3,0,20,68,67,67,67,67,67,67,67,66,66,65,65,65,65,65,65,65,65,65,65
5,3,3,0,20,65,65,65,65,65,65,65,65,65,65,65,65,65,65,65,65,65,65,65,65
5,3,3,0,20,65,65,65,65,65,65,65,65,64,64,64,65,65,65,64,64,64,65,65,65
5,3,3,0,20,64,65,65,66,65,65,65,65,65,66,64,64,64,65,65,65,64,64,63,63
5,3,3,0,20,61,60,60,60,60,60,60,60,62,64,65,67,67,67,68,69,68,68,67,67
5,3,3,0,20,67,67,69,72,74,76,69,62,50,39,31,24,23,28,41,55,66,77,79,82
5,3,3,0,20,69,70,69,68,67,67,68,70,69,69,67,66,66,66,65,65,65,65,65,65
5,3,3,0,20,64,64,64,64,63,63,62,62,61,61,60,59,58,57,57,58,58,58,59,60
5,3,3,0,20,64,68,68,69,68,68,68,68,68,68,67,67,67,67,67,67,66,66,66,66
5,3,3,0,20,66,66,65,65,65,65,65,65,65,65,65,65,66,65,65,65,64,64,64,65
5,3,3,0,20,65,65,65,65,65,65,64,64,64,65,66,65,64,64,64,64,64,65,65,65
5,3,3,0,20,64,64,64,64,64,65,65,65,65,65,65,65,65,65,65,65,65,65,65,65
5,3,3,0,20,65,65,64,64,63,62,61,60,60,60,60,60,60,60,61,62,63,64,65,67
5,3,3,0,20,68,69,68,68,67,67,67,67,67,67,69,72,74,76,69,62,50,39,31,23
5,3,3,0,20,42,62,71,80,81,76,73,70,69,69,68,68,68,69,69,69,68,68,67,67
5,3,3,0,20,66,65,65,65,65,65,65,65,64,64,63,63,62,62,61,61,60,59,58,57
5,3,3,0,20,58,59,59,59,59,60,61,63,65,68,69,68,68,68,68,68,68,68,67,67
5,3,3,0,20,66,66,65,65,65,66,66,66,65,65,65,66,65,64,64,65,65,65,65,65
5,3,3,0,20,65,65,65,65,65,65,65,65,64,64,65,66,65,65,64,64,64,65,66,65
5,3,3,0,20,64,65,66,65,64,64,64,65,65,65,64,64,64,65,65,65,65,65,65,65
5,3,3,0,20,64,64,64,64,64,65,65,65,65,65,65,65,63,62,61,60,59,60,60,61
5,3,3,0,20,60,62,63,65,66,68,67,67,67,68,67,67,67,67,67,68,67,68,70,73
5,3,3,0,20,67,62,50,39,31,23,27,31,46,61,71,81,76,71,69,68,68,69,69,69
5,3,3,0,20,69,69,69,69,68,68,67,67,66,65,65,65,65,65,64,64,64,64,63,63
5,3,3,0,20,62,62,61,60,58,57,57,58,58,59,58,59,61,63,65,67,67,67,68,69
5,3,3,0,20,68,68,68,68,67,67,67,67,67,67,66,66,66,66,65,65,64,64,65,66
5,3,3,0,20,65,65,65,65,66,65,64,64,64,65,65,65,65,65,65,65,64,64,64,64
5,3,3,0,20,66,65,64,64,64,65,65,65,64,64,64,65,65,65,64,64,64,64,64,64
5,3,3,0,20,64,64,64,65,65,65,64,64,64,65,66,65,65,65,65,66,65,65,64,63
5,3,3,0,20,61,60,60,60,60,60,60,61,61,62,64,66,67,68,68,68,68,69,68,68
5,3,3,0,20,67,67,67,67,68,69,71,74,76,71,49,28,23,25,33,41,56,72,77,82
5,3,3,0,20,75,69,69,69,70,69,68,67,68,69,68,67,67,67,66,65,65,65,66,65
5,3,3,0,20,64,64,64,65,64,64,63,62,62,62,60,59,58,58,58,58,58,58,59,60
5,3,3,0,20,62,64,65,67,68,69,69,69,68,67,67,67,67,67,66,67,67,67,66,65
5,3,3,0,20,65,66,65,66,65,65,65,65,65,65,65,65,65,65,65,65,65,65,65,65
5,3,3,0,20,65,65,65,65,65,65,64,64,64,65,65,65,65,65,65,65,65,65,64,64
5,3,3,0,20,64,65,65,65,65,65,65,65,64,64,64,64,64,65,65,65,65,66,66,66
5,3,3,0,20,65,65,65,65,64,64,62,61,60,60,60,60,60,61,61,61,62,64,65,67
5,3,3,0,20,67,68,68,69,68,68,67,67,67,68,67,69,71,74,75,71,61,52,39,27
5,3,3,0,20,25,36,51,66,73,81,82,75,72,69,68,68,68,68,68,69,68,68,67,66
5,3,3,0,20,65,65,65,66,65,65,65,65,64,64,64,64,63,63,62,62,61,60,59,58
5,3,3,0,20,57,57,57,58,58,59,59,60,62,64,66,68,68,68,68,68,67,67,67,67
5,3,3,0,20,67,67,66,66,66,67,66,66,66,66,65,65,65,65,65,65,65,65,66,65
5,3,3,0,20,64,64,64,65,65,65,65,65,65,65,64,65,65,65,65,65,65,65,65,65
5,3,3,0,20,64,64,64,65,64,64,64,64,64,64,64,65,64,64,64,64,64,65,65,65
5,3,3,0,20,66,65,65,65,65,65,65,65,64,64,65,64,62,61,60,60,60,60,60,60
5,3,3,0,20,61,63,64,65,66,67,67,68,68,68,69,68,67,67,67,67,67,67,68,70
5,3,3,0,20,76,71,62,53,40,27,22,24,32,41,61,81,82,75,72,69,68,69,68,68
5,3,3,0,20,68,69,68,68,67,67,66,66,65,65,65,65,65,65,64,65,64,64,63,63
5,3,3,0,20,62,62,61,60,59,59,58,57,57,58,59,60,60,61,63,65,66,68,68,69
5,3,3,0,20,69,69,68,67,67,67,67,67,67,67,66,66,65,65,65,66,66,66,65,65
5,3,3,0,20,65,65,65,65,65,65,65,66,65,65,64,64,64,65,65,65,65,65,66,65
5,3,3,0,20,64,64,64,65,65,65,64,65,65,65,65,65,64,65,65,65,65,65,65,65
5,3,3,0,20,64,65,65,65,64,64,64,65,65,65,65,65,65,66,66,66,65,64,63,62
5,3,3,0,20,61,60,60,60,60,60,60,61,62,63,65,67,67,67,67,68,68,69,68,67
5,3,3,0,20,67,67,67,67,68,70,73,76,72,68,46,25,23,27,40,54,65,76,78,81
5,3,3,0,20,74,68,68,69,68,68,68,69,69,70,68,67,67,67,66,65,64,64,64,65
5,3,3,0,20,64,64,64,64,63,63,62,62,61,61,60,59,58,57,58,59,60,59,59,59
5,3,3,0,20,62,66,66,67,67,68,68,68,68,68,67,67,67,67,67,67,66,65,65,66
5,3,3,0,20,65,65,65,65,66,65,65,65,65,65,65,65,66,65,64,64,64,64,64,65
5,3,3,0,20,64,65,64,65,65,65,64,64,64,65,65,65,65,65,65,65,64,64,64,65
5,3,3,0,20,64,64,64,65,64,64,64,64,64,65,65,65,65,65,65,65,65,65,65,65
5,3,3,0,20,65,65,66,65,64,64,62,61,60,60,59,59,59,60,61,62,63,64,65,67
5,3,3,0,20,67,68,68,69,68,68,67,68,68,68,67,70,73,76,77,68,57,46,35,25
5,3,3,0,20,42,60,69,79,81,77,73,69,68,69,68,68,68,69,69,70,69,68,67,66
5,3,3,0,20,66,66,66,66,65,65,65,65,65,65,64,63,62,62,62,62,61,60,59,58
5,3,3,0,20,58,58,58,59,60,61,62,64,65,67,68,69,68,68,68,68,68,68,67,67
5,3,3,0,20,66,67,66,66,65,65,65,65,65,66,65,65,65,66,65,65,65,65,65,65
5,3,3,0,20,64,64,64,65,65,65,65,65,65,65,65,65,64,64,64,65,65,65,64,64
5,3,3,0,20,64,65,65,65,65,65,65,65,64,64,64,65,64,64,64,64,64,65,65,65
5,3,3,0,20,65,65,65,65,65,66,65,65,65,65,64,64,62,61,60,59,59,59,59,60
5,3,3,0,20,61,62,63,65,66,67,67,68,68,69,67,67,68,67,67,67,69,72,74,76
5,3,3,0,20,71,67,59,52,39,27,23,25,33,41,82,76,72,69,68,69,69,69,68,68
5,3,3,0,20,68,69,68,68,67,67,66,66,65,65,64,65,65,66,65,64,63,63,63,64
5,3,3,0,20,63,62,61,60,59,58,57,57,58,59,58,59,60,61,63,66,67,68,68,69
5,3,3,0,20,67,67,67,67,67,67,66,66,66,66,65,65,65,65,65,66,66,66,65,65
5,3,3,0,20,65,66,65,65,64,64,64,64,64,65,65,65,65,65,65,65,65,65,64,64
5,3,3,0,20,64,65,65,65,64,64,64,64,64,65,65,65,65,65,64,64,64,64,64,65
5,3,3,0,20,64,64,64,64,64,65,65,65,65,65,65,65,65,65,65,66,65,64,63,62
5,3,3,0,20,61,61,60,60,60,60,61,62,62,63,65,68,67,67,67,68,68,69,68,67
5,3,3,0,20,67,68,67,67,69,71,73,76,69,63,43,23,28,34,50,66,73,81,82,76
5,3,3,0,20,69,70,69,68,67,68,69,70,69,69,67,67,66,66,65,65,65,65,65,65
5,3,3,0,20,64,64,64,64,63,63,62,62,62,62,60,59,58,57,57,57,57,58,59,60
5,3,3,0,20,63,67,68,69,68,68,68,68,68,68,67,67,67,67,67,67,67,67,66,66
5,3,3,0,20,65,65,65,65,65,65,65,65,65,65,65,65,65,65,65,66,65,65,64,64
5,3,3,0,20,64,65,64,64,64,65,65,65,65,65,65,65,65,65,65,65,65,65,65,65
5,3,3,0,20,64,65,65,65,64,64,64,64,64,65,65,65,66,65,64,64,64,65,65,66
5,3,3,0,20,65,66,65,65,64,63,62,61,60,59,59,60,60,61,62,63,64,66,67,68
5,3,3,0,20,67,68,69,68,67,67,67,67,67,67,69,71,73,75,69,64,52,41,32,23
5,3,3,0,20,44,66,73,81,78,76,72,69,69,69,68,68,68,69,69,69,68,67,66,66
5,3,3,0,20,65,66,66,66,65,64,64,64,64,64,63,63,63,63,62,62,61,60,59,58
5,3,3,0,20,57,57,58,59,59,59,60,62,64,66,67,69,68,68,67,67,67,67,67,67
5,3,3,0,20,66,67,67,67,66,66,66,66,65,65,65,66,66,66,65,65,65,65,66,65
5,3,3,0,20,64,64,65,66,65,65,64,64,64,65,65,65,64,65,65,65,64,64,64,64
5,3,3,0,20,65,64,64,64,64,65,65,65,64,64,64,65,65,65,64,64,64,64,64,65
5,3,3,0,20,65,65,65,65,65,66,65,65,65,65,64,63,61,60,60,60,60,60,59,59
5,3,3,0,20,61,64,64,65,66,67,67,68,68,69,67,67,67,68,67,67,69,71,73,76
5,3,3,0,20,61,46,35,25,24,27,39,52,63,75,82,76,72,69,68,69,70,69,68,68
5,3,3,0,20,68,69,68,68,67,67,66,65,65,65,65,65,65,65,64,64,64,64,63,63
5,3,3,0,20,62,61,60,59,58,57,57,57,57,58,60,62,64,66,67,68,69,68,68,68
5,3,3,0,20,67,67,67,67,67,67,66,66,66,67,66,66,65,65,65,65,65,65,65,65
5,3,3,0,20,65,66,65,65,64,64,64,65,65,66,65,65,65,65,64,64,64,64,64,65
5,3,3,0,20,65,65,65,65,64,65,64,64,64,64,65,64,64,64,64,65,65,65,65,65
5,3,3,0,20,64,64,64,65,65,65,65,65,65,65,65,65,65,65,65,65,64,64,63,62
5,3,3,0,20,61,60,60,60,60,60,60,61,62,64,65,66,66,67,68,69,68,68,67,67
5,3,3,0,20,68,67,69,71,73,76,70,64,52,41,32,23,31,40,55,71,76,82,77,73
5,3,3,0,20,69,69,68,68,68,69,69,69,69,69,67,67,66,65,65,65,65,65,65,65
5,3,3,0,20,64,64,64,64,63,62,62,62,62,62,60,58,57,57,57,58,59,58,59,60
5,3,3,0,20,62,65,66,68,68,69,68,68,67,67,67,67,67,67,66,66,66,66,65,65
5,3,3,0,20,65,65,65,65,65,65,65,65,65,65,65,65,65,65,65,65,65,65,65,65
5,3,3,0,20,65,65,64,65,65,65,65,65,65,65,65,65,64,64,64,64,64,65,65,65
5,3,3,0,20,64,64,64,64,64,64,64,65,64,65,65,65,65,65,65,66,66,66,65,64
5,3,3,0,20,65,66,65,64,63,62,61,61,60,60,59,60,60,61,62,63,64,66,66,67
5,3,3,0,20,68,69,68,68,67,67,67,68,67,66,69,73,76,74,66,59,48,37,29,22
5,3,3,0,20,46,71,76,81,77,73,71,69,69,69,68,69,69,70,69,69,68,67,66,66
5,3,3,0,20,65,65,65,65,65,65,64,64,64,64,63,63,62,62,61,61,60,59,58,58
5,3,3,0,20,58,59,59,59,59,60,61,63,65,67,67,68,68,68,68,68,68,68,67,67
5,3,3,0,20,66,66,66,66,66,66,66,66,66,66,65,65,65,65,65,65,64,64,64,65
5,3,3,0,20,65,65,65,65,65,65,65,65,66,65,64,64,64,64,65,64,64,65,65,65
5,3,3,0,20,64,65,65,65,65,65,65,65,64,64,64,65,65,65,64,64,64,65,65,65
5,3,3,0,20,65,66,65,65,64,64,65,66,65,65,63,62,61,61,60,60,59,59,59,60
5,3,3,0,20,62,64,64,65,66,67,67,68,68,69,68,68,67,68,67,67,67,68,71,74
5,3,3,0,20,61,48,36,25,23,26,39,52,63,75,81,76,72,69,69,69,68,68,68,68
5,3,3,0,20,70,69,68,67,67,67,66,65,65,65,65,66,65,64,64,64,64,64,63,63
5,3,3,0,20,62,62,61,60,58,57,57,57,57,57,58,60,61,63,65,67,68,69,68,68
5,3,3,0,20,68,68,68,68,67,67,67,67,67,67,65,65,65,66,66,66,65,65,65,65
5,3,3,0,20,65,65,65,65,64,64,64,65,65,65,65,65,65,65,65,65,65,65,64,64
5,3,3,0,20,64,65,66,65,64,64,64,65,65,65,64,64,64,65,65,65,64,65,65,65
5,3,3,0,20,65,65,65,65,64,64,64,65,65,65,65,65,65,65,65,65,64,64,63,62
5,3,3,0,20,60,60,60,60,60,60,61,62,63,64,65,67,67,68,68,69,69,69,68,67
5,3,3,0,20,68,67,68,69,71,74,76,71,62,54,23,26,39,52,63,75,78,82,77,72
5,3,3,0,20,69,69,68,68,68,69,69,69,68,68,67,66,65,65,65,65,65,65,65,65
5,3,3,0,20,64,64,63,63,63,63,62,62,62,62,60,58,57,57,57,58,58,58,59,60
5,3,3,0,20,63,67,67,68,68,69,69,69,68,67,68,67,66,66,66,67,66,66,65,65
5,3,3,0,20,66,65,64,64,64,65,65,66,65,64,64,65,65,65,65,65,65,66,65,65
5,3,3,0,20,65,65,65,65,65,65,64,64,64,65,64,64,64,64,64,65,65,65,64,64
5,3,3,0,20,64,64,64,64,65,64,64,65,65,66,65,65,65,65,65,65,64,65,65,65
5,3,3,0,20,65,66,65,64,62,61,60,60,59,59,59,60,60,61,62,64,65,66,66,67
5,3,3,0,20,68,69,68,68,67,67,67,68,67,67,70,73,77,75,67,59,48,37,30,23
5,3,3,0,20,40,58,68,78,81,78,74,71,69,69,68,68,68,69,69,69,68,67,66,66
5,3,3,0,20,65,65,65,65,65,65,65,65,64,64,63,62,62,62,61,60,60,60,59,58
5,3,3,0,20,57,58,59,60,60,60,61,63,65,68,69,68,68,68,69,68,67,67,67,68
5,3,3,0,20,67,66,66,66,66,66,65,65,65,65,65,65,65,65,65,66,65,65,65,65
5,3,3,0,20,64,64,64,65,65,66,65,65,64,64,64,64,64,65,65,65,65,65,65,65
5,3,3,0,20,64,64,64,65,65,65,65,65,65,65,65,65,64,64,64,64,64,64,64,65
5,3,3,0,20,65,65,65,66,66,66,65,65,65,65,64,64,62,61,60,60,59,59,59,60
5,3,3,0,20,61,62,64,66,66,67,67,67,68,69,68,68,67,67,67,68,67,67,69,71
5,3,3,0,20,76,72,63,54,41,28,25,23,31,39,81,76,72,69,68,69,68,68,68,68
5,3,3,0,20,69,70,69,68,67,66,66,66,65,65,65,65,64,64,64,64,64,64,63,63
5,3,3,0,20,63,63,62,61,60,59,58,57,57,58,58,59,59,60,62,65,66,67,67,68
5,3,3,0,20,68,68,68,68,67,67,67,67,66,67,66,66,65,65,65,65,65,65,65,66
5,3,3,0,20,65,64,64,65,65,65,64,65,65,65,65,65,65,65,65,65,64,64,64,65
5,3,3,0,20,66,65,64,64,64,65,65,65,64,64,64,64,65,64,64,64,64,64,64,65
5,3,3,0,20,65,65,65,66,65,65,65,65,65,65,65,65,64,65,65,65,65,65,64,64
5,3,3,0,20,62,60,60,60,60,60,60,60,61,63,65,67,67,67,68,69,70,69,68,67
5,3,3,0,20,67,67,67,67,69,71,73,76,70,65,45,25,23,26,39,52,63,75,78,82
5,3,3,0,20,68,70,69,69,68,67,68,69,69,70,68,66,66,66,65,65,65,65,65,66
5,3,3,0,20,65,64,63,64,63,63,62,62,62,62,60,59,58,57,57,57,58,59,59,59
5,3,3,0,20,62,66,67,68,69,68,68,69,68,68,67,67,67,68,67,67,66,66,66,66
5,3,3,0,20,65,65,65,66,66,66,65,64,64,65,66,65,65,65,65,66,65,65,65,65
5,3,3,0,20,65,65,64,64,64,64,64,65,64,64,64,65,65,65,64,65,65,65,65,65
5,3,3,0,20,65,65,65,65,64,64,64,64,64,65,65,65,65,66,65,65,65,66,65,65
5,3,3,0,20,65,65,65,65,64,64,63,63,62,61,59,59,59,60,61,62,62,63,64,66
5,3,3,0,20,67,68,68,69,68,68,67,67,67,68,67,69,72,75,76,70,60,50,38,26
5,3,3,0,20,38,50,62,74,78,82,76,71,69,68,70,69,68,67,68,69,70,69,68,67
5,3,3,0,20,66,66,65,65,65,65,65,65,65,65,64,64,64,64,63,63,62,62,61,60
5,3,3,0,20,58,57,57,58,58,59,59,60,62,64,66,68,68,69,68,68,68,68,67,67
5,3,3,0,20,67,67,67,67,66,65,65,65,65,65,65,65,65,66,65,65,65,65,65,66
5,3,3,0,20,65,64,64,65,65,65,65,65,65,65,64,64,64,64,64,65,65,65,64,64
5,3,3,0,20,65,64,64,64,64,65,64,65,64,64,64,65,65,65,64,64,64,65,65,65
5,3,3,0,20,65,65,65,65,65,65,65,65,65,65,66,65,64,64,63,62,61,60,60,60
5,3,3,0,20,60,61,61,61,62,63,65,67,68,67,70,69,68,67,67,67,67,67,67,68
5,3,3,0,20,72,76,68,61,49,38,30,23,28,33,53,74,78,82,77,72,70,68,68,69
5,3,3,0,20,68,68,68,69,69,69,68,67,66,65,65,65,65,65,65,65,65,65,64,64
5,3,3,0,20,63,63,62,62,61,60,59,58,58,58,57,59,60,61,62,64,65,67,68,69
5,3,3,0,20,68,68,68,68,68,68,67,67,67,67,66,66,66,66,65,65,65,65,65,65
5,3,3,0,20,65,66,65,65,65,65,65,65,65,65,65,65,65,65,65,65,65,65,64,64
5,3,3,0,20,64,65,65,65,64,64,64,64,64,65,65,65,65,65,64,64,64,64,64,65
5,3,3,0,20,64,64,64,64,64,65,65,65,65,65,65,65,65,65,65,65,65,65,65,65
5,3,3,0,20,63,62,61,60,60,60,60,60,60,61,62,64,65,66,66,67,67,68,68,69
5,3,3,0,20,68,67,67,67,67,67,68,69,71,74,59,44,34,24,23,28,42,56,66,77
5,3,3,0,20,79,72,70,68,69,70,69,68,68,69,70,69,68,67,66,66,65,65,65,65
5,3,3,0,20,65,65,64,64,64,64,63,63,63,63,62,61,60,59,58,58,57,57,57,58
5,3,3,0,20,59,60,61,63,65,67,67,68,68,68,69,68,67,67,66,66,66,67,67,67
5,3,3,0,20,65,65,65,66,65,65,65,65,65,66,64,64,64,65,65,65,64,64,64,65
5,3,3,0,20,66,65,64,64,64,65,65,65,65,65,65,65,64,64,64,64,65,66,65,64
5,3,3,0,20,64,65,65,65,64,65,65,65,65,65,64,65,65,65,64,64,64,65,65,66
5,3,3,0,20,64,65,65,66,65,65,64,64,63,62,59,59,59,60,60,60,61,62,63,65
5,3,3,0,20,66,67,67,68,69,68,67,67,67,67,67,67,68,69,72,75,76,70,60,51
5,3,3,0,20,37,23,27,32,47,63,71,80,82,77,72,68,69,68,68,68,68,69,69,69
5,3,3,0,20,67,67,66,66,65,65,65,65,65,65,64,64,63,63,63,63,63,63,62,61
5,3,3,0,20,59,58,57,57,57,58,58,59,60,61,64,67,67,68,68,69,68,68,68,68
5,3,3,0,20,67,66,66,66,66,67,66,66,65,66,65,65,64,64,65,66,65,65,65,65
5,3,3,0,20,65,65,65,65,65,65,65,65,65,65,64,64,64,64,64,65,64,64,64,64
5,3,3,0,20,64,65,65,65,64,64,64,64,64,65,65,65,64,64,64,65,65,65,65,65
5,3,3,0,20,65,65,65,65,65,65,65,65,65,65,65,65,66,65,64,63,61,60,60,60
5,3,3,0,20,59,60,60,60,61,62,63,65,66,67,68,69,68,68,67,67,67,67,66,66
5,3,3,0,20,70,74,76,73,65,57,43,30,26,23,39,56,66,77,81,79,75,71,70,69
5,3,3,0,20,68,67,68,69,69,70,69,68,67,67,65,64,65,66,66,66,65,64,64,64
5,3,3,0,20,63,62,61,61,61,61,60,59,58,57,57,57,57,58,59,60,61,62,64,66
5,3,3,0,20,67,69,69,69,68,68,67,67,67,67,67,67,66,66,66,66,66,66,65,65
5,3,3,0,20,65,65,65,65,65,65,65,65,65,65,65,65,65,65,65,65,65,65,65,65
5,3,3,0,20,64,64,64,65,65,65,65,65,65,65,64,64,64,64,64,65,65,65,64,64
5,3,3,0,20,64,65,65,65,65,65,65,65,65,65,64,65,65,65,65,65,65,65,65,66
5,3,3,0,20,64,63,62,61,60,60,60,60,60,60,61,63,64,65,66,67,67,68,68,68
5,3,3,0,20,68,68,67,67,67,67,68,70,72,75,66,58,44,30,26,22,29,37,52,68
5,3,3,0,20,81,76,72,69,69,69,69,69,68,68,68,69,68,67,67,67,66,65,65,65
5,3,3,0,20,65,66,65,64,64,64,64,64,64,64,62,61,59,58,57,57,57,58,58,58
5,3,3,0,20,59,61,63,65,66,68,68,69,69,69,68,67,67,67,67,67,66,66,66,66
5,3,3,0,20,67,66,65,65,65,65,65,65,66,65,65,65,65,65,64,64,64,65,65,66
5,3,3,0,20,65,64,64,65,65,65,65,65,64,64,64,64,64,65,65,65,64,64,64,64
5,3,3,0,20,64,64,64,65,65,65,65,65,65,65,65,65,65,65,65,65,65,65,65,65
5,3,3,0,20,65,65,65,65,65,65,65,65,64,63,61,60,59,59,59,60,60,60,61,63
5,3,3,0,20,65,67,67,67,68,69,69,69,68,67,67,68,67,67,69,72,74,76,69,62
5,3,3,0,20,44,26,23,24,36,48,60,73,77,82,69,69,68,68,68,68,68,69,69,69
5,3,3,0,20,67,67,66,66,66,66,65,65,65,65,64,64,64,64,63,63,62,62,61,61
5,3,3,0,20,60,59,57,56,57,58,58,59,59,59,63,67,67,68,68,68,68,68,68,68
5,3,3,0,20,68,68,67,67,66,65,65,66,66,66,65,65,66,65,64,64,64,65,65,66
5,3,3,0,20,65,65,65,65,65,65,65,65,65,65,65,65,65,65,65,65,64,64,64,64
5,3,3,0,20,64,65,65,65,65,65,65,65,65,65,64,64,64,64,64,65,64,64,64,64
5,3,3,0,20,64,65,65,65,65,65,65,65,65,65,65,65,65,65,64,63,62,61,60,60
5,3,3,0,20,60,60,60,61,62,63,64,66,66,67,68,69,69,69,68,67,67,67,67,68
5,3,3,0,20,71,75,76,71,61,51,39,27,23,25,39,54,65,76,82,79,75,71,69,68
5,3,3,0,20,68,69,69,69,69,69,68,67,67,67,66,65,65,65,65,65,65,65,64,64
5,3,3,0,20,63,63,62,62,61,61,60,60,59,58,57,58,58,59,59,60,61,62,64,67
5,3,3,0,20,68,67,67,68,68,68,67,67,67,67,67,67,66,66,65,65,65,65,65,65
5,3,3,0,20,65,65,65,66,65,65,65,65,65,65,65,65,65,65,65,65,64,64,64,65
5,3,3,0,20,65,65,65,65,64,64,64,65,65,65,65,65,65,65,65,65,64,64,64,64
5,3,3,0,20,64,65,64,64,64,64,64,65,65,65,65,65,65,65,64,65,65,65,66,65
5,3,3,0,20,64,64,62,61,60,60,59,59,59,60,61,63,64,65,66,67,67,68,68,69
5,3,3,0,20,68,67,67,67,68,67,67,67,70,73,76,67,56,46,35,25,23,27,41,55
5,3,3,0,20,81,78,74,71,68,69,69,69,68,68,69,70,68,67,66,66,65,66,66,66
5,3,3,0,20,65,65,64,64,64,64,64,64,63,63,62,61,60,60,59,59,58,57,57,58
5,3,3,0,20,58,59,60,62,64,66,67,68,68,68,67,67,67,67,67,67,66,66,66,67
5,3,3,0,20,66,66,65,65,65,65,65,65,65,65,65,65,65,65,65,65,65,65,65,65
5,3,3,0,20,65,65,65,65,65,65,65,65,65,65,64,64,64,65,64,64,64,65,65,65
5,3,3,0,20,64,64,64,64,64,65,64,64,64,64,65,64,64,65,65,65,65,65,65,65
5,3,3,0,20,65,66,65,65,65,66,65,65,64,63,61,59,59,59,59,60,61,62,63,64
5,3,3,0,20,65,67,67,68,68,69,68,68,68,68,67,67,69,72,74,76,69,62,51,41
5,3,3,0,20,32,23,35,47,60,73,77,82,77,73,69,69,68,68,68,68,68,69,69,69
5,3,3,0,20,67,67,66,65,65,65,65,66,65,65,64,64,64,64,63,62,62,62,61,61
5,3,3,0,20,60,59,58,58,57,57,58,59,59,60,64,68,68,69,68,68,68,68,67,67
5,3,3,0,20,67,67,66,66,66,66,66,66,65,66,66,66,65,65,65,65,65,65,65,65
5,3,3,0,20,65,65,65,65,65,65,65,65,65,65,65,65,64,64,64,65,65,65,64,65
5,3,3,0,20,65,65,65,65,65,65,65,65,65,65,64,64,64,64,64,64,64,65,65,65
5,3,3,0,20,64,64,64,65,66,65,65,65,64,64,64,65,64,64,63,62,61,61,60,60
5,3,3,0,20,59,60,61,62,63,64,65,66,66,67,68,69,69,69,68,67,67,68,67,67
5,3,3,0,20,69,72,74,76,69,63,51,40,31,23,38,53,64,76,79,82,76,71,69,68
5,3,3,0,20,68,69,68,68,68,69,69,69,68,67,64,65,65,65,65,65,65,65,64,64
5,3,3,0,20,63,63,63,63,62,61,60,59,58,58,57,57,57,58,59,60,62,64,65,67
5,3,3,0,20,68,69,68,68,68,68,68,68,67,66,67,66,66,66,66,66,65,65,65,65
5,3,3,0,20,65,65,65,65,65,65,65,65,65,65,65,65,65,65,65,65,65,65,65,65
5,3,3,0,20,64,64,64,65,66,65,64,64,64,64,65,64,64,65,65,65,64,64,64,65
5,3,3,0,20,64,64,64,65,64,64,64,65,65,66,65,65,65,66,65,65,65,65,65,66
5,3,3,0,20,64,62,61,60,60,60,59,60,60,60,61,63,64,66,66,67,67,68,68,69
5,3,3,0,20,67,67,67,68,67,67,69,71,73,76,61,46,35,25,23,26,40,54,65,77
5,3,3,0,20,82,75,72,69,68,69,68,68,68,69,70,69,68,68,67,67,66,66,65,65
5,3,3,0,20,65,66,65,64,64,64,64,64,63,63,62,62,61,60,59,58,57,57,57,57
5,3,3,0,20,59,62,64,66,67,68,69,68,68,68,67,67,66,66,66,67,68,67,66,66
5,3,3,0,20,66,66,65,65,65,66,65,65,64,64,64,65,65,65,65,65,65,65,65,65
5,3,3,0,20,65,65,65,65,64,64,64,65,65,65,65,65,65,65,65,65,65,65,64,64
5,3,3,0,20,65,64,64,64,64,64,64,64,64,65,65,65,65,65,64,64,64,65,65,65
5,3,3,0,20,65,65,65,66,65,65,64,64,63,62,60,60,59,60,60,61,61,62,63,64
5,3,3,0,20,66,68,68,68,68,68,69,68,69,68,67,67,67,68,70,73,75,74,66,58
5,3,3,0,20,40,23,27,31,45,60,69,78,81,78,73,69,69,69,69,69,69,69,69,69
5,3,3,0,20,67,66,65,65,65,66,66,66,65,64,64,64,65,64,63,62,62,62,62,62
5,3,3,0,20,59,57,57,57,57,58,58,59,59,60,63,66,67,68,68,69,68,68,68,68
5,3,3,0,20,67,66,66,66,67,66,66,66,65,66,65,65,65,65,65,65,65,65,65,65
5,3,3,0,20,65,66,65,65,65,65,65,65,64,64,64,65,65,65,65,65,65,65,65,65
5,3,3,0,20,65,65,65,65,65,65,64,64,64,64,65,64,64,64,64,65,65,65,65,65
5,3,3,0,20,65,65,65,65,65,65,65,65,66,65,65,66,65,65,63,61,60,59,59,60
5,3,3,0,20,60,60,61,62,63,64,65,67,67,67,68,69,68,68,67,67,67,68,67,67
5,3,3,0,20,76,74,66,58,44,31,27,23,29,35,55,76,81,79,75,71,69,68,68,69
5,3,3,0,20,68,69,69,69,68,68,67,67,66,66,65,66,66,66,65,65,65,65,64,64
5,3,3,0,20,62,62,62,62,61,60,58,57,56,56,57,59,59,60,61,63,65,67,68,69
5,3,3,0,20,69,69,68,68,67,67,67,67,67,67,66,66,66,66,65,65,65,65,65,65
5,3,3,0,20,65,65,65,66,65,65,64,64,64,65,66,65,65,65,65,65,65,65,65,65
5,3,3,0,20,65,65,65,65,65,65,64,64,64,64,64,65,64,64,64,64,64,64,64,65
5,3,3,0,20,64,64,64,64,64,65,66,65,66,65,65,65,65,66,65,65,64,64,64,65
5,3,3,0,20,63,62,61,60,60,60,60,60,60,60,62,65,66,67,67,68,68,69,69,69
5,3,3,0,20,68,67,67,67,67,67,68,69,72,75,58,41,32,23,26,30,45,60,69,79
5,3,3,0,20,80,74,71,68,68,69,69,69,69,69,68,68,67,67,66,66,65,65,65,65
5,3,3,0,20,65,65,65,65,64,64,63,63,62,62,60,59,58,58,58,58,58,58,58,59
5,3,3,0,20,60,62,64,66,67,69,68,68,67,67,67,68,67,67,67,67,66,66,65,65
5,3,3,0,20,66,65,65,65,65,66,65,65,65,65,65,66,65,65,64,64,65,66,65,65
5,3,3,0,20,65,65,65,65,64,64,64,65,65,65,64,64,64,64,64,64,64,65,65,65
5,3,3,0,20,64,64,64,65,65,65,65,65,65,65,64,64,64,65,65,65,65,65,65,66
5,3,3,0,20,65,65,65,65,65,66,65,64,62,61,59,60,60,60,60,60,62,64,65,66
5,3,3,0,20,67,68,68,69,68,68,68,68,68,68,67,66,68,71,73,76,70,64,53,42
5,3,3,0,20,23,30,44,59,68,78,81,78,74,71,69,69,68,68,68,69,70,69,68,67
5,3,3,0,20,65,65,65,65,65,65,65,65,65,65,64,63,62,62,62,62,61,61,60,59
5,3,3,0,20,58,58,58,58,58,59,59,60,61,62,65,68,69,68,68,68,68,68,67,67
5,3,3,0,20,66,66,66,67,67,67,66,66,65,65,65,65,65,65,65,66,65,65,65,65
5,3,3,0,20,65,65,64,65,65,65,65,65,64,64,64,65,65,65,65,65,65,65,65,65
5,3,3,0,20,65,65,64,64,64,65,65,65,64,64,64,64,64,64,64,64,65,64,64,65
5,3,3,0,20,66,65,64,64,64,65,65,66,65,65,66,65,64,63,62,61,60,60,60,60
5,3,3,0,20,61,62,63,64,65,67,67,67,67,68,68,69,67,66,66,67,68,67,67,68
5,3,3,0,20,72,76,68,60,46,32,27,23,28,33,54,75,78,82,77,72,70,68,68,69
5,3,3,0,20,67,68,68,69,68,68,67,67,66,66,65,65,65,65,65,65,65,65,64,63
5,3,3,0,20,62,62,62,62,61,60,59,58,57,57,58,59,59,60,62,64,65,67,67,68
5,3,3,0,20,68,68,68,68,68,68,67,67,67,67,66,65,65,65,65,66,65,65,64,64
5,3,3,0,20,66,64,64,64,64,65,65,65,64,65,66,65,64,64,64,64,64,65,65,65
5,3,3,0,20,65,65,65,65,65,65,65,65,65,65,64,64,64,65,64,64,64,64,64,65
5,3,3,0,20,64,64,64,65,64,64,64,64,64,65,65,65,65,66,66,66,65,65,65,65
5,3,3,0,20,62,60,60,60,60,60,59,59,60,62,64,67,67,68,68,68,68,69,68,68
5,3,3,0,20,67,67,67,67,67,68,71,74,76,72,52,32,27,23,28,33,48,64,72,81
5,3,3,0,20,77,73,71,69,69,69,68,68,68,69,68,68,67,67,66,66,65,65,65,65
5,3,3,0,20,65,65,64,64,64,64,63,63,62,62,61,60,59,58,57,57,57,58,58,59
5,3,3,0,20,62,65,66,68,69,68,68,68,68,68,68,68,67,67,66,66,66,67,66,66
5,3,3,0,20,65,66,66,66,65,65,65,65,65,65,65,65,65,65,65,65,65,65,65,65
5,3,3,0,20,65,65,65,65,64,64,64,64,64,65,65,65,65,65,65,65,64,64,64,64
5,3,3,0,20,64,65,65,65,65,65,65,65,65,65,65,65,64,64,64,65,65,65,65,65
5,3,3,0,20,65,65,65,65,65,65,64,64,62,61,60,60,60,60,61,62,63,64,64,65
5,3,3,0,20,66,67,67,68,68,69,68,67,67,67,66,67,70,73,76,75,67,60,46,33
5,3,3,0,20,22,28,43,58,68,78,81,78,74,71,69,69,69,69,68,68,68,69,68,68
5,3,3,0,20,67,66,66,66,65,65,65,65,65,65,64,64,63,63,63,63,62,62,61,61
5,3,3,0,20,59,57,57,58,58,59,59,59,60,62,64,67,67,68,68,68,68,69,68,68
5,3,3,0,20,66,67,66,67,66,66,66,66,66,66,65,65,65,65,64,64,64,65,65,66
5,3,3,0,20,65,64,64,64,65,66,65,65,65,65,66,65,64,64,64,64,64,65,64,64
5,3,3,0,20,65,64,64,64,64,64,64,65,65,65,65,65,64,64,64,64,64,65,65,65
5,3,3,0,20,65,65,65,65,65,66,66,66,65,65,65,65,64,64,62,61,60,60,59,60
5,3,3,0,20,60,60,61,62,63,65,66,67,67,68,68,69,68,67,67,68,68,68,67,67
5,3,3,0,20,76,74,66,59,46,33,28,23,28,33,55,78,81,78,74,71,69,69,69,69
5,3,3,0,20,68,69,69,70,69,69,68,67,66,66,65,65,65,65,65,65,64,64,64,64
5,3,3,0,20,63,62,61,61,60,60,59,58,57,57,58,59,59,60,62,64,66,68,68,69
5,3,3,0,20,69,69,68,67,67,67,67,67,66,66,66,66,66,66,65,65,65,65,65,65
5,3,3,0,20,65,65,65,65,65,66,65,65,65,65,65,65,65,65,64,64,64,64,64,65
5,3,3,0,20,64,64,64,64,64,65,65,65,65,65,64,65,65,65,65,65,64,65,65,65
5,3,3,0,20,64,64,64,64,64,65,65,65,65,65,65,65,65,65,65,66,66,66,65,64
5,3,3,0,20,63,62,61,60,60,60,60,60,60,61,62,64,65,66,66,67,68,69,69,69
5,3,3,0,20,68,68,68,68,67,67,68,69,72,76,62,49,37,26,23,26,38,50,62,74
5,3,3,0,20,76,70,69,69,68,68,67,67,68,70,68,67,67,67,66,66,65,65,65,65
5,3,3,0,20,65,65,65,65,64,64,63,63,63,63,61,60,59,59,58,57,57,57,57,58
5,3,3,0,20,59,61,63,65,66,68,68,69,68,68,67,68,68,68,67,66,66,66,66,67
5,3,3,0,20,65,65,65,65,65,65,65,65,65,65,64,64,64,65,65,66,65,65,64,64
5,3,3,0,20,66,65,64,64,64,65,65,65,65,65,64,64,64,65,65,65,65,65,65,65
5,3,3,0,20,64,65,65,65,64,64,64,64,64,65,65,65,65,65,65,65,65,65,65,65
5,3,3,0,20,65,65,65,65,65,65,64,64,62,61,59,60,60,60,60,61,62,64,65,66
5,3,3,0,20,66,67,68,69,68,68,67,67,67,68,67,67,69,72,74,76,70,65,54,43
5,3,3,0,20,33,23,33,44,56,69,75,81,77,74,68,69,69,69,69,69,69,69,70,69
5,3,3,0,20,67,66,65,65,65,65,65,65,65,65,64,64,64,64,63,63,62,62,61,60
5,3,3,0,20,58,57,57,58,58,59,59,60,61,63,65,68,68,68,68,68,68,68,67,67
5,3,3,0,20,67,67,66,66,66,66,66,66,65,65,66,65,64,64,64,65,65,65,65,65
5,3,3,0,20,65,66,65,65,65,65,65,65,64,64,65,66,66,66,65,65,64,65,65,65
5,3,3,0,20,64,64,64,65,65,65,65,65,65,65,64,64,64,64,64,64,64,64,64,65
5,3,3,0,20,65,65,65,65,65,65,65,65,65,65,65,65,64,64,62,61,60,60,60,60
5,3,3,0,20,60,61,62,63,64,66,66,67,67,68,68,69,68,68,67,67,67,67,67,67
5,3,3,0,20,71,76,71,66,55,44,34,24,23,28,49,70,76,82,78,74,71,69,69,69
5,3,3,0,20,68,69,69,70,69,68,67,67,66,66,65,65,65,65,65,65,64,64,64,64
5,3,3,0,20,63,63,62,62,61,61,60,60,59,58,58,59,59,60,61,63,65,67,67,68
5,3,3,0,20,68,68,68,68,68,68,68,68,67,67,67,67,66,66,65,65,65,65,65,65
5,3,3,0,20,66,65,65,65,65,65,65,65,65,65,65,65,65,65,65,65,65,65,65,65
5,3,3,0,20,65,65,65,65,65,65,64,65,64,65,64,65,64,64,64,64,64,65,65,65
5,3,3,0,20,64,64,64,65,64,64,64,65,65,66,65,65,65,65,65,65,65,65,65,65
5,3,3,0,20,63,62,61,60,60,60,60,60,60,61,62,64,65,66,66,67,67,68,69,70
5,3,3,0,20,67,67,67,67,67,67,68,70,73,76,62,49,37,25,23,25,37,50,62,74
5,3,3,0,20,81,75,72,69,69,69,69,69,68,69,69,69,68,67,67,67,66,65,65,65
5,3,3,0,20,66,65,65,65,64,64,64,64,63,63,62,61,60,60,59,58,57,57,57,58
5,3,3,0,20,59,60,61,63,65,67,67,68,68,68,68,68,67,67,67,67,66,66,66,66
5,3,3,0,20,65,65,65,65,65,65,65,66,66,66,65,65,65,65,64,65,65,65,66,65
5,3,3,0,20,65,65,66,65,64,64,64,64,64,65,65,65,64,64,64,65,65,65,65,65
5,3,3,0,20,65,65,64,64,64,64,64,65,64,64,64,65,65,65,64,65,65,66,66,66
5,3,3,0,20,65,66,66,66,65,65,65,65,64,63,61,59,59,59,59,60,61,62,63,64
5,3,3,0,20,66,68,68,68,68,69,69,69,68,67,67,67,69,71,73,75,70,65,54,44
5,3,3,0,20,23,25,38,51,62,73,77,81,77,73,69,69,69,69,68,68,68,69,68,68
5,3,3,0,20,67,67,66,66,65,65,65,66,65,65,64,64,63,63,62,62,62,62,61,61
5,3,3,0,20,59,58,58,58,58,58,58,58,59,60,63,66,67,68,68,69,68,68,67,67
5,3,3,0,20,67,67,66,66,66,66,66,66,65,65,65,65,65,65,65,65,65,66,66,66
5,3,3,0,20,65,65,65,65,65,65,64,64,64,64,64,65,65,65,65,65,65,65,64,64
5,3,3,0,20,64,65,65,65,65,65,65,65,64,64,64,65,64,64,64,65,65,65,64,64
5,3,3,0,20,64,65,65,65,65,65,65,66,65,65,65,65,64,64,63,62,61,60,60,60
5,3,3,0,20,60,60,61,62,63,64,65,67,67,67,68,69,69,69,68,67,67,68,68,68
5,3,3,0,20,72,76,68,61,47,34,28,23,27,32,44,57,65,74,77,81,76,72,70,69
5,3,3,0,20,68,69,69,69,68,68,67,67,66,66,64,65,65,66,65,65,64,64,64,64
5,3,3,0,20,63,63,62,62,61,61,60,59,58,58,58,58,58,58,59,60,62,64,65,67
5,3,3,0,20,68,69,68,68,68,68,67,67,67,67,66,66,66,66,66,66,65,65,65,65
5,3,3,0,20,66,65,66,65,65,65,65,65,65,65,64,64,64,65,65,65,64,64,64,64
5,3,3,0,20,64,65,65,65,65,65,65,65,64,64,64,65,65,65,64,64,64,64,64,64
5,3,3,0,20,64,65,65,65,65,65,65,65,64,64,65,66,66,66,65,65,65,66,65,65
5,3,3,0,20,63,62,61,60,59,59,59,60,60,61,62,63,65,67,68,67,67,67,67,68
5,3,3,0,20,67,67,67,68,67,68,70,72,74,76,55,34,28,23,27,32,47,62,71,80
5,3,3,0,20,76,72,70,68,68,69,68,68,68,68,68,69,68,67,66,66,66,66,65,66
5,3,3,0,20,65,65,65,65,64,64,63,63,62,62,61,60,59,59,58,58,57,57,57,58
5,3,3,0,20,59,60,62,64,65,67,67,68,68,69,68,68,67,67,66,66,66,66,66,67
5,3,3,0,20,65,64,65,66,65,65,64,64,64,65,66,65,65,65,65,66,65,65,64,64
5,3,3,0,20,64,65,65,65,65,65,65,65,65,65,65,65,65,65,65,65,64,64,64,64
5,3,3,0,20,65,64,64,65,64,64,64,64,64,65,66,65,65,65,65,65,65,65,64,65
5,3,3,0,20,65,66,65,65,64,65,65,65,64,64,60,60,59,59,59,60,61,63,64,65
5,3,3,0,20,66,68,68,68,68,68,68,68,67,67,67,67,68,69,72,75,76,70,60,51
5,3,3,0,20,37,23,27,32,47,63,71,80,82,77,72,68,68,69,68,68,68,69,69,69
5,3,3,0,20,68,67,66,66,65,65,65,65,65,65,65,65,64,64,63,63,62,62,61,61
5,3,3,0,20,60,59,58,57,57,57,57,58,58,59,63,67,68,69,68,68,68,68,68,68
5,3,3,0,20,67,67,67,67,67,67,66,65,65,65,65,66,65,64,64,65,65,66,65,65
5,3,3,0,20,65,65,65,65,65,65,65,66,65,64,65,66,65,65,65,65,65,65,64,64
5,3,3,0,20,64,65,65,65,64,64,64,65,64,64,64,64,64,64,64,65,65,65,64,64
5,3,3,0,20,65,66,66,66,65,65,64,64,65,66,65,64,64,65,64,64,62,60,59,59
5,3,3,0,20,59,60,60,60,61,63,64,66,66,66,67,69,70,69,68,67,67,68,67,66
5,3,3,0,20,70,74,76,73,64,56,43,30,26,23,42,62,71,80,81,77,73,69,68,69
5,3,3,0,20,69,69,69,69,70,69,68,68,67,66,65,65,65,65,65,65,64,64,64,64
5,3,3,0,20,63,63,62,62,62,62,61,60,59,58,57,57,57,58,59,60,61,62,64,66
5,3,3,0,20,67,69,69,69,68,68,67,67,67,67,66,66,66,66,66,66,65,65,65,65
5,3,3,0,20,64,64,64,65,66,65,65,65,65,65,65,65,65,65,64,64,64,65,65,65
5,3,3,0,20,65,65,65,65,64,64,64,65,65,65,64,65,65,65,65,65,65,65,65,65
5,3,3,0,20,65,65,65,65,64,64,64,64,64,65,65,65,65,65,65,65,65,65,65,65
5,3,3,0,20,64,64,62,61,60,60,60,60,60,60,61,63,64,65,65,66,66,67,68,69
5,3,3,0,20,68,68,67,68,67,67,66,67,69,72,76,70,60,51,38,26,23,24,36,49
5,3,3,0,20,65,81,77,73,70,68,68,69,69,69,68,69,69,69,68,68,67,67,66,65
5,3,3,0,20,65,65,64,64,64,64,64,64,63,63,62,62,61,61,60,59,58,57,57,58
5,3,3,0,20,60,59,60,61,63,66,66,67,67,68,69,68,68,68,67,67,66,66,66,66
5,3,3,0,20,65,65,65,65,65,65,66,65,65,65,65,66,65,65,64,64,65,66,65,65
5,3,3,0,20,64,65,66,65,65,65,65,65,65,65,64,64,64,65,64,64,64,65,65,65
5,3,3,0,20,64,64,65,64,64,64,64,65,65,65,65,65,65,65,65,65,65,65,65,65
5,3,3,0,20,65,66,65,65,65,65,64,64,63,63,61,60,59,59,59,60,61,62,62,63
5,3,3,0,20,65,67,67,68,68,69,69,69,68,68,67,68,67,67,68,70,72,75,71,67
5,3,3,0,20,48,30,26,23,32,42,55,68,74,81,75,69,69,69,69,69,68,69,69,69
5,3,3,0,20,68,67,66,66,65,65,65,65,65,65,64,64,65,64,63,63,62,62,62,62
5,3,3,0,20,60,58,57,57,57,57,58,59,59,60,62,64,66,69,68,68,67,68,68,68
5,3,3,0,20,68,68,67,67,66,66,66,67,66,66,65,65,65,66,65,65,65,65,65,66
5,3,3,0,20,64,65,65,65,65,65,64,65,65,66,65,65,65,65,65,65,65,65,65,65
5,3,3,0,20,64,64,64,64,64,64,64,64,64,64,64,65,64,64,64,64,64,65,65,65
5,3,3,0,20,65,65,65,65,66,65,65,65,65,65,65,65,65,65,63,62,61,60,60,60
5,3,3,0,20,60,60,60,61,62,63,64,65,66,67,68,69,68,68,68,68,67,68,67,67
5,3,3,0,20,69,71,73,76,71,67,56,45,34,24,36,48,60,73,77,81,76,72,70,68
5,3,3,0,20,70,68,67,68,69,70,69,69,67,66,65,65,65,65,65,66,65,65,64,64
5,3,3,0,20,63,63,62,62,61,62,61,61,59,58,56,57,58,59,59,60,61,62,64,67
5,3,3,0,20,67,68,68,69,68,68,67,67,67,67,67,67,67,67,66,66,65,65,65,65
5,3,3,0,20,66,65,65,65,65,65,66,65,65,65,64,65,65,65,65,65,65,65,65,65
5,3,3,0,20,64,64,64,65,65,65,65,65,65,65,64,64,64,65,65,65,64,64,64,64
5,3,3,0,20,65,64,64,65,65,65,65,65,64,65,66,65,65,65,65,65,65,65,65,65
5,3,3,0,20,64,63,62,61,60,60,60,60,60,60,61,63,64,65,66,67,66,67,68,69
5,3,3,0,20,67,66,67,68,69,67,67,68,71,75,63,51,39,27,23,25,36,47,60,73
5,3,3,0,20,82,77,73,70,69,69,69,69,68,68,70,69,68,67,66,66,66,66,65,65
5,3,3,0,20,64,64,64,64,64,65,64,64,63,63,62,62,61,60,59,58,57,57,57,58
5,3,3,0,20,59,60,62,65,66,68,68,68,68,69,68,68,68,68,67,67,66,66,66,66
5,3,3,0,20,66,66,65,65,65,65,65,65,65,66,65,65,64,64,64,65,66,65,65,65
5,3,3,0,20,64,64,64,65,66,65,64,64,64,65,65,65,65,65,65,65,65,65,64,64
5,3,3,0,20,64,65,65,65,64,64,64,64,64,65,65,65,65,65,65,65,65,65,64,64
5,3,3,0,20,65,66,66,66,65,65,65,65,64,64,60,60,60,60,60,60,61,62,62,63
5,3,3,0,20,65,67,67,68,68,69,68,68,67,67,68,67,68,70,73,76,71,67,56,46
5,3,3,0,20,22,24,36,48,60,72,76,81,77,73,68,69,69,69,68,67,68,69,69,70
5,3,3,0,20,68,67,66,66,65,65,65,65,66,65,64,64,64,64,63,63,62,62,62,62
5,3,3,0,20,60,58,57,57,57,57,58,59,59,60,63,67,67,68,69,68,68,68,67,68
5,3,3,0,20,67,67,66,66,66,66,67,66,66,66,66,66,65,64,64,65,65,65,65,65
5,3,3,0,20,65,66,65,65,64,64,64,65,65,65,65,65,64,65,65,65,65,65,64,64
5,3,3,0,20,64,64,64,65,65,65,65,65,65,65,65,65,64,64,64,64,64,65,65,65
5,3,3,0,20,65,65,66,65,64,64,65,66,65,65,64,65,66,65,63,62,61,60,59,59
5,3,3,0,20,60,61,62,64,65,66,66,66,67,68,70,69,68,67,67,68,68,68,67,66
5,3,3,0,20,71,76,69,63,49,35,29,23,26,30,51,72,76,81,77,73,70,68,68,69
5,3,3,0,20,68,68,68,69,69,69,68,68,67,66,65,65,65,66,65,65,64,64,64,64
5,3,3,0,20,63,62,62,62,61,60,59,59,58,57,58,59,59,60,61,62,64,67,67,68
5,3,3,0,20,68,68,68,68,67,67,67,67,67,67,66,66,65,65,65,66,65,65,65,65
5,3,3,0,20,66,65,64,64,64,65,65,65,65,65,65,65,65,65,65,65,64,64,64,64
5,3,3,0,20,66,65,64,65,65,65,65,65,65,65,65,65,65,65,65,65,65,65,65,65
5,3,3,0,20,64,65,65,65,64,64,64,64,64,65,65,65,64,64,64,65,65,65,66,65
5,3,3,0,20,63,62,61,61,60,60,60,60,60,61,62,63,64,65,66,67,67,67,68,69
5,3,3,0,20,68,67,67,68,67,67,66,68,71,75,69,63,49,35,29,23,26,30,45,60
5,3,3,0,20,81,75,72,69,68,69,68,68,68,68,70,69,68,67,66,66,65,65,65,66
5,3,3,0,20,65,65,65,65,64,64,63,63,63,63,62,61,60,60,59,58,57,57,57,58
5,3,3,0,20,58,59,60,62,64,67,67,68,69,68,68,68,67,67,67,67,67,67,67,67
5,3,3,0,20,66,66,65,65,64,64,64,65,65,66,65,65,65,65,65,66,65,65,65,65
5,3,3,0,20,65,65,65,65,65,65,65,65,64,64,64,65,64,64,64,64,64,65,64,64
5,3,3,0,20,64,65,64,64,64,64,64,65,64,64,64,65,66,65,65,65,65,65,65,66
5,3,3,0,20,65,65,65,65,65,65,64,64,63,62,60,60,59,60,60,60,61,62,63,64
5,3,3,0,20,65,67,67,67,68,69,69,69,68,67,68,67,68,70,72,75,71,67,56,46
5,3,3,0,20,23,27,41,55,65,76,78,80,76,72,69,69,69,69,68,68,69,70,69,69
5,3,3,0,20,67,66,66,66,65,65,65,65,64,65,64,64,64,64,63,63,63,63,61,60
5,3,3,0,20,59,58,57,57,57,58,58,59,60,61,64,68,68,69,69,69,68,67,67,67
5,3,3,0,20,68,67,67,67,67,67,66,66,65,65,66,65,64,64,65,66,65,65,65,65
5,3,3,0,20,65,65,64,64,64,65,65,66,65,64,65,66,65,65,64,65,65,65,64,64
5,3,3,0,20,65,66,65,64,64,64,64,64,64,64,64,64,64,65,65,65,65,65,65,65
5,3,3,0,20,65,65,65,65,65,65,65,65,65,65,65,65,64,64,63,62,61,61,60,60
5,3,3,0,20,60,60,60,61,62,64,65,66,66,67,68,69,69,69,68,67,67,67,67,67
5,3,3,0,20,70,73,76,73,65,57,44,31,27,23,47,72,76,81,77,73,70,68,69,70
5,3,3,0,20,69,68,68,69,69,69,68,68,67,67,64,65,65,65,64,64,64,65,65,65
5,3,3,0,20,64,63,63,63,61,60,59,59,59,59,57,58,58,59,59,60,62,64,65,67
5,3,3,0,20,68,69,69,69,68,68,67,67,67,67,66,66,65,65,65,65,65,66,65,65
5,3,3,0,20,64,65,65,66,65,65,65,65,64,65,65,65,64,64,64,65,65,65,65,65
5,3,3,0,20,65,65,64,64,64,65,65,65,65,65,65,65,64,64,64,65,65,65,65,65
5,3,3,0,20,65,65,64,64,64,65,65,66,65,65,65,65,65,65,65,65,65,66,66,66
5,3,3,0,20,63,61,60,60,60,60,60,60,60,61,62,64,65,66,66,67,67,68,68,69
5,3,3,0,20,67,67,67,67,67,67,67,68,71,74,66,59,45,31,27,23,32,41,53,66
5,3,3,0,20,73,81,76,72,70,69,68,68,68,68,69,68,67,67,66,66,65,65,65,65
5,3,3,0,20,66,65,64,64,64,64,63,63,62,62,62,62,60,59,58,57,57,58,58,59
5,3,3,0,20,59,60,62,64,65,67,67,68,68,69,68,67,67,67,68,67,66,66,66,66
5,3,3,0,20,65,65,65,66,66,66,65,65,65,65,65,65,64,64,64,65,65,65,65,65
5,3,3,0,20,65,65,65,65,64,64,64,65,65,66,65,64,64,64,64,65,64,64,64,65
5,3,3,0,20,65,65,64,64,64,65,65,65,64,64,64,64,64,65,65,65,65,65,65,65
5,3,3,0,20,65,65,65,65,65,65,64,64,63,62,60,59,59,59,59,60,61,62,63,65
5,3,3,0,20,66,67,68,69,69,69,68,67,67,67,68,67,68,69,72,75,76,71,61,52
5,3,3,0,20,37,23,26,30,45,60,69,79,81,78,73,68,68,68,68,69,69,69,69,69
5,3,3,0,20,68,68,66,65,64,64,65,66,66,66,65,64,63,63,62,63,63,63,62,61
5,3,3,0,20,59,57,57,58,58,59,58,58,59,60,63,67,67,68,68,69,69,69,68,68
5,3,3,0,20,67,67,67,67,66,66,66,66,65,65,65,65,65,65,65,65,65,65,65,65
5,3,3,0,20,65,65,65,65,66,65,65,65,65,65,65,65,65,65,65,65,65,65,65,65
5,3,3,0,20,64,64,64,64,64,65,65,65,64,64,64,65,65,65,64,64,64,64,64,64
5,3,3,0,20,64,65,65,65,65,65,65,66,65,65,65,66,65,65,64,63,62,61,60,60
5,3,3,0,20,60,61,61,62,63,64,65,66,67,68,68,69,68,68,67,67,67,68,67,67
5,3,3,0,20,71,75,76,71,62,53,40,28,25,23,41,60,69,79,81,78,74,70,69,69
5,3,3,0,20,68,68,68,69,70,69,68,67,66,66,65,65,65,65,65,65,65,65,64,64
5,3,3,0,20,63,62,62,62,63,62,61,60,59,59,57,58,58,59,59,60,62,64,66,68
5,3,3,0,20,68,68,68,69,69,69,68,67,67,67,66,66,66,66,66,66,65,65,65,65
5,3,3,0,20,65,65,65,65,65,65,65,65,65,65,65,65,64,64,64,64,64,65,65,65
5,3,3,0,20,65,66,65,65,64,64,64,64,64,65,65,65,65,65,64,64,64,64,64,64
5,3,3,0,20,65,64,64,65,65,65,65,65,65,65,64,64,64,65,65,66,65,65,65,65
5,3,3,0,20,64,64,62,61,60,60,60,60,60,60,61,62,63,65,66,67,67,68,68,69
5,3,3,0,20,68,67,67,68,67,67,67,68,70,73,76,68,57,47,35,24,22,25,39,53
5,3,3,0,20,81,79,75,71,70,69,69,69,68,68,69,70,69,68,67,67,66,65,65,65
5,3,3,0,20,65,65,64,64,64,64,64,64,63,63,62,62,61,61,60,59,58,57,57,58
5,3,3,0,20,58,59,60,61,63,66,67,68,68,68,68,69,68,68,67,67,67,67,67,67
5,3,3,0,20,66,66,65,65,65,65,65,66,65,65,65,65,64,64,64,65,65,65,65,65
5,3,3,0,20,65,65,65,65,64,64,64,65,65,65,64,64,64,64,64,65,65,65,65,65
5,3,3,0,20,64,64,64,64,64,65,65,65,64,64,64,65,64,64,64,65,65,65,65,65
5,3,3,0,20,65,66,66,66,65,65,65,65,65,65,63,61,60,59,59,59,59,60,60,61
5,3,3,0,20,64,67,67,67,68,69,68,68,67,67,67,68,67,67,69,72,74,76,70,64
5,3,3,0,20,46,28,25,23,34,46,58,71,76,81,75,69,68,69,69,69,68,68,68,69
5,3,3,0,20,68,68,67,66,66,66,65,65,64,65,65,65,64,64,64,64,63,63,62,62
5,3,3,0,20,60,59,58,57,57,58,58,59,59,59,61,64,65,67,67,68,69,68,68,68
5,3,3,0,20,67,67,67,67,66,67,67,67,66,66,66,66,66,66,65,65,65,65,65,65
5,3,3,0,20,65,65,65,65,65,65,65,65,64,64,64,65,65,65,65,65,65,65,65,65
5,3,3,0,20,65,65,65,65,64,64,64,64,64,65,64,64,64,65,64,64,64,65,65,65
5,3,3,0,20,64,64,64,65,65,65,65,65,65,65,65,65,65,66,65,65,63,61,60,60
5,3,3,0,20,60,60,60,60,61,62,63,64,65,66,67,69,68,68,67,67,67,68,67,67
5,3,3,0,20,69,72,74,76,70,64,50,37,30,23,34,46,58,71,75,80,76,73,71,69
5,3,3,0,20,68,68,68,69,69,69,69,69,68,67,66,65,65,65,65,66,65,65,64,64
5,3,3,0,20,64,64,63,63,62,62,61,61,60,60,56,57,58,59,59,59,60,62,64,67
5,3,3,0,20,67,68,68,68,68,68,67,67,67,67,66,66,66,67,66,66,66,66,65,65
5,3,3,0,20,65,65,65,65,65,65,65,65,65,66,65,65,64,65,65,65,65,65,64,64
